00595
02483
02483
02483
02483
00380
10773
05515
03925
03575
01428
03187
22350
10531
10563
03602
13488
00325
01028
02224
19296
01142
04567
00954
01704
01011
01011
05786
01876
05851
02510
07462
01095
03594
03147
03547
01031
00166
00123
03665
00832
00242
03631
01546
01547
01924
02535
02884
03656
04764
01703
03654
05550
01585
00575
03686
02939
01430
03557
03733
03574
00794
02456
04077
00167
00375
03707
02339
03545
09699
07678
07641
03652
00239
01029
00859
07644
02275
07566
01695
02601
00558
07577
04088
04087
03449
03406
03043
10441
01682
01807
00833
01247
05786
01802
00241
03060
01889
00627
00627
00382
00382
00382
06222
10763
00405
00406
01610
03406
02916
03117
07394
03673
03092
01821
05367
03814
09796
03596
00963
07042
07091
02231
09930
00648
03046
09936
02493
02835
02909
02233
06213
02234
02502
03470
03469
03640
08289
02406
09747
01548
07646
02556
02470
02469
02621
03168
03168
02825
02622
03546
03569
02435
03274
08296
03183
01588
01589
07461
03641
02662
02405
03530
00901
03760
03303
02837
00525
01652
03555
06076
01892
00604
03500
00798
02401
03413
00820
02238
02400
04562
04754
03808
03808
00790
06968
01845
03923
01962
09811
00864
02055
02054
02053
02052
09857
06192
03624
02834
03111
09748
07277
03685
10679
01056
02494
03571
03801
03771
00266
09912
09888
09895
07478
03694
01681
00991
03587
05365
05515
05896
03666
01586
03688
02914
03217
02078
09928
06206
03040
02895
02961
02906
02066
09800
03599
06861
08301
05810
03110
03919
02335
03701
02343
02340
02338
02342
02341
02342
03572
03582
03583
03581
03703
03657
00766
03648
07568
02346
02881
06131
03271
01433
08973
06916
00411
02948
03629
03655
03584
03550
03551
01159
03179
02337
02110
01956
00526
08484
04075
03562
02160
00059
00324
10805
02313
05559
06967
00344
02188
01419
09458
03702
03975
10764
06187
07657
02111
03614
02030
07447
03424
02380
03832
05788
03832
02553
04044
03561
03786
03612
01997
01998
01665
05799
00537
06223
01247
01915
06193
03980
07644
02303
02072
02071
02073
01647
06940
03522
03521
00311
03088
00836
07141
07402
04084
03805
03088
00655
07231
07338
09947
07113
07226
07443
08218
08160
09767
00077
02113
02109
02108
09781
01608
00873
08717
02048
06186
03664
00101
03630
02014
01706
02013
02015
02016
02020
02018
03563
08482
01433
01141
00873
09913
07020
00404
00404
00405
00406
09926
09792
00759
01972
03528
06188
06901
07127
01483
02769
02770
02806
01142
06048
03497
06996
00036
01236
00705
06044
00700
01968
03893
09964
07798
02408
00344
03609
01925
01000
01929
01928
03586
03438
07056
07121
07460
03600
00413
00412
02996
01867
07018
09908
01761
02557
03407
03414
02416
02413
03579
09972
09971
09970
09969
06999
03732
03635
03637
07175
09861
06181
01241
09456
00788
06189
03643
09890
07157
01945
06042
05895
07340
02014
03823
04046
03924
00339
00340
01584
08307
03088
09930
03893
00549
01480
07395
01753
01872
05526
01484
06447
00673
00302
02115
02412
07402
09902
06136
06138
06139
08195
01995
03585
03610
03565
03601
05524
02314
09823
02316
03589
02229
00033
00537
05516
02498
02823
06151
08303
03406
01996
02193
02379
00558
10806
03667
00609
09007
01465
06178
03592
10979
03781
00957
02460
02600
02650
15555
06149
00764
01679
01903
01993
01959
06603
00362
00265
10914
07638
07675
02410
02386
02398
01902
06891
07313
07644
03811
00449
03736
01657
07458
01658
03781
01696
10941
03786
02959
02392
02418
02420
02396
02397
02407
02556
00426
00425
02391
13541
01963
00793
00793
02557
02387
02409
02404
02422
02411
02414
07023
02204
00448
10943
00163
04564
02388
02336
02687
03724
03722
03723
00647
13747
02945
00800
03553
04066
00575
10440
10439
03408
02654
02421
02419
02415
00658
09471
03717
09915
03387
00383
03687
03192
07234
01685
00156
03314
03098
07236
07237
11179
07393
01875
06199
03634
00684
02518
03704
00566
07153
03885
01118
06153
06969
00285
02200
02200
02199
02198
02197
02196
02195
02194
04061
03408
00784
06016
01464
03588
03642
05837
00783
09710
00969
00147
03495
03650
03579
01698
07178
01886
03269
03088
02509
06152
07667
00057
02014
01716
06911
04079
03311
00549
00673
03721
00500
01724
07053
06190
09780
03498
07401
07001
07039
09790
03776
01918
01810
00962
02956
02519
01803
03431
00796
03798
02427
07574
01955
06200
03282
00528
06901
07054
06995
00140
07002
04064
03594
07290
01996
01995
01998
01997
01999
00763
06966
02990
03218
02012
02011
01939
00791
06925
06949
01613
07795
07120
08988
01652
07118
03577
01857
06915
06986
07000
03651
09920
00058
02657
04774
02824
02659
10126
10125
05783
02038
02037
02040
09950
07734
00036
03455
00574
01776
01868
03704
06726
00852
00151
09471
06995
02014
06980
07649
01599
03112
01735
00891
02666
01887
02044
02041
02042
02445
05306
02051
00381
03088
01923
07287
01714
03567
03564
03548
03517
03669
03670
07560
01468
02036
02038
02037
02040
02072
07160
01354
01714
09160
03684
09794
05800
03639
01756
00116
01745
01712
09975
05836
03098
00688
06940
06207
03151
07708
07712
03216
03071
03797
09798
02168
02167
03672
03169
00564
02112
03466
02967
02887
00053
01653
07028
02013
02015
02016
06204
00950
00606
18334
10536
00338
00337
01907
09989
01251
09761
02487
06596
02660
02658
01920
03832
07735
03821
03821
03690
01496
01523
03116
06958
00598
07222
03316
03316
07090
07090
00832
00299
00567
03767
03088
03088
09918
00263
00451
06205
09932
09948
07090
07090
07090
00012
00116
07160
00164
06985
01895
01895
01895
00032
06203
02665
02664
07665
03841
07661
11444
07659
07774
00666
00666
00666
00666
03566
11383
07637
05802
07639
08191
07006
07039
08311
01754
03593
03617
03613
01940
01465
03683
02011
02012
03185
03580
01262
02415
03182
03628
03671
00937
09768
06140
06202
01778
09921
02073
07002
02045
02047
02046
02048
11073
01915
01915
01438
05800
02454
01999
07137
03313
06077
00275
08993
09858
00640
06987
03724
03190
07660
01625
01091
01091
11384
03561
00868
02017
00219
07235
02116
02529
02619
01525
00703
00262
00799
00661
02483
00523
02362
01474
01426
12266
12297
12340
01494
03704
04752
02019
03327
10974
02437
00605
02014
02014
03088
00457
06920
03560
03704
03745
01881
02669
02014
03088
03088
02014
02035
02034
02033
03549
06182
03188
00286
02221
00641
03439
03149
03154
03089
09812
08316
06997
07019
00154
06969
01687
02012
02011
09857
03808
03808
06911
03820
07240
03501
03186
12255
12256
01784
01420
03560
11892
07506
12251
12252
12254
04091
08305
09950
02863
02950
02355
02892
02982
02954
02994
02988
02876
02952
02986
03594
03536
07233
07798
03113
03327
06894
02278
09933
03735
02558
04084
01426
07213
03760
07665
07665
11928
05358
03768
00108
01485
01835
03496
08083
01749
01719
03611
07740
03773
06158
01919
06959
05844
04762
04083
07107
08312
10126
10125
01790
10536
02014
16088
05834
00655
01246
02517
03499
01462
04096
07403
10010
10009
02424
00640
02168
03119
02014
03088
03119
02051
02049
02050
11903
06075
07243
02496
03522
03521
03406
03406
01620
00600
00305
06137
03978
03086
02970
01409
08591
01633
00950
09786
02067
02065
03300
00324
00252
01433
07663
06143
00228
02002
10253
01662
02858
16088
07304
00982
02843
02841
02844
02848
07289
01693
02000
02002
01752
07107
02002
07458
00123
00124
00127
01042
01424
03310
01507
00067
07275
09165
01414
07070
02274
02258
02276
02259
07286
02003
05838
07738
00946
07152
02073
02072
02071
09816
09817
09815
02014
07165
03088
02342
01638
02019
01012
02170
02169
01935
03496
07180
02439
00097
06195
07102
05801
01783
01609
06134
02503
07124
00145
09001
01866
03525
12262
12253
12262
03405
03597
03088
00278
09159
01775
00285
06940
06995
02913
01531
00375
01714
00014
02035
03630
00930
00762
01142
00989
00942
07010
01915
03559
04761
00253
05787
03181
02039
02036
07088
01118
09919
03578
01915
03088
01462
07058
00243
03088
01738
01652
02192
07390
00611
02440
02444
00111
10001
10003
10002
10004
03576
02527
07115
05591
07007
02348
07043
00927
00615
00789
01972
08304
02014
07267
01338
03474
03100
03598
04047
01890
00970
00821
01874
11016
10942
02907
02933
02946
02508
03977
03075
01921
02963
07007
03189
11102
04078
01869
01679
03177
01883
03530
01032
02501
01894
02618
02609
01673
00014
02902
02614
02616
03076
03638
02610
02611
02394
02399
02393
02395
02612
02613
03789
03073
02867
02864
02935
03554
02389
02417
11065
01878
04043
11085
02992
02358
02926
02886
02965
02890
02878
02904
02874
02931
02879
03625
03087
01624
03979
02433
02871
03590
03531
02390
03608
03070
07636
11105
03496
01429
04763
07862
02356
01879
01448
07347
03210
02520
03734
03412
00088
02500
11103
02563
04485
00336
00335
01676
01814
00760
03833
04063
03118
03816
07391
03320
05366
02528
04744
01091
11068
00343
00341
00342
00334
00331
01961
00817
02768
01424
01744
06024
04564
01755
03529
05794
08483
11183
02114
02298
00425
03570
03787
03701
05936
00240
03611
06173
03412
05596
02455
11066
02453
03273
07305
00479
00631
03306
02355
01637
00330
02014
03415
01915
05774
03563
00928
03644
09158
07258
05784
05549
11312
02297
02461
03719
03719
03719
06222
03561
00652
00104
11477
03711
01092
05527
01104
11902
00031
10026
01897
01897
08224
07552
11472
11473
07278
03426
11896
11896
13486
02455
11475
06219
11474
11441
11903
01759
11811
11927
07126
07126
07126
12979
12979
00569
07793
00059
00066
00626
07794
03406
08305
00906
02624
07690
07665
00612
03827
06160
07124
12370
00620
12538
01075
12542
12549
08324
06138
00303
06598
03446
03446
02001
02001
02001
06995
09774
03270
06041
02065
02066
02067
07323
00765
00013
06899
12368
07088
07301
03642
02434
03568
09889
07238
05808
01297
03527
07552
03299
03088
02014
00600
03773
02523
00822
00140
02968
01870
03101
03774
08084
02671
02672
02673
02655
03153
02433
06016
01996
01995
01998
01997
01999
08223
07165
03088
02888
02899
00931
05805
03088
07165
02014
11747
07165
06942
02897
00948
00919
06950
05807
06180
03695
03885
12976
09862
07733
03088
07165
11903
02492
01776
03088
07644
07665
03415
05916
07165
00773
03072
03074
00761
00116
03556
03775
00432
03406
00767
03806
03807
03424
03435
00882
09954
02299
02300
06940
03088
07165
06917
01008
02044
02041
02042
02042
04755
00940
06941
02656
06287
00640
04488
04082
00380
01581
03088
05847
05846
05845
05846
11073
11754
01669
06955
07071
01772
00558
11209
02483
11074
05597
03324
11904
00117
11076
00274
06970
01873
01255
03704
00605
01752
02437
03312
00926
00611
01478
03758
03758
09790
07165
00134
01690
00845
01515
04042
15371
02484
01720
07787
00602
11739
00031
03636
01951
01952
03118
03117
03116
07093
02452
02454
02457
02458
02459
07267
00036
01057
01649
06938
03106
02860
00554
03981
00003
01733
02836
11740
03791
07027
01497
06889
12372
01150
01150
07215
07215
13053
11747
00666
01069
00748
00029
05595
09017
09017
01760
06889
06889
06889
06889
13292
01473
11897
00626
00632
09810
01081
01595
00939
00568
11891
11904
11894
11907
11891
11890
11892
11892
11909
11075
03496
00694
01185
11891
11905
11906
11752
11901
11900
11901
03417
11910
02054
02053
00466
11753
11903
11904
11895
04487
11719
11895
00059
03524
11893
01710
11893
11073
11073
02237
07213
01243
03442
03386
03386
00024
03472
03543
10536
01659
02302
03762
01358
11900
08368
00042
11906
01766
07787
04091
04091
04091
04091
04091
03286
01784
07090
07090
03119
07090
00130
00974
11720
01259
09914
00316
00137
01593
03704
00563
01439
02426
00674
00990
01265
02357
09903
02838
00806
00981
00099
11749
06142
02536
02372
00677
01937
01627
01689
05589
01770
06176
00573
06194
06895
00019
11189
07165
05343
18302
05685
07733
13590
00108
12981
00215
06183
05520
05520
13038
13288
02463
13378
00297
00303
13609
13894
13893
13766
06867
06147
07246
01534
13487
13482
13491
01079
13788
09806
05349
12339
12371
09945
00951
01555
00557
04085
00146
00146
07397
07232
12573
07017
01708
01467
07114
07114
07114
07114
14063
14052
08963
00831
00945
04719
11175
01933
09938
13930
13628
13934
13935
07221
01960
02472
01791
01591
03406
05782
01495
07320
03809
03778
03215
02227
02225
02232
00768
00432
09760
03710
05789
01791
00067
03284
00655
02014
03799
00432
06923
15540
07345
06445
01953
09924
07146
07396
01736
05820
08967
07238
00973
03453
01265
00363
02623
03773
03797
09927
01626
05592
03743
06966
00528
02742
06177
02517
07001
02002
03563
09898
03406
02073
00055
01479
02624
03406
03406
03406
03406
00426
15778
12976
14059
01267
13933
13928
13929
13932
13926
14058
08086
13953
01916
07346
01055
01799
01825
13888
12537
12536
00455
04691
13007
07782
01856
06956
12368
12541
12369
00721
03457
03457
07823
01487
06879
15726
13895
00281
07165
00281
01491
00281
01491
01607
03328
06518
06075
05921
09024
12686
05921
01934
12658
05812
03272
13979
00148
03088
01586
03827
18297
07165
13995
00799
07679
13789
05540
00114
01104
07483
13652
00407
00955
13634
01130
01273
02004
01792
05297
10778
13481
03297
13643
13821
00121
13938
13490
13489
01534
00020
02028
13895
13931
13894
13896
04750
13639
08688
00108
13893
07182
03782
13893
01729
14228
14232
14232
14220
14220
03381
14393
01434
02053
00141
02055
14230
11735
03863
14237
14237
14237
03293
07343
01977
01977
01977
01977
01977
01977
01977
01983
14229
14229
14229
01070
01969
13580
09773
01007
03088
02575
03812
07259
09923
07679
04046
00407
13629
07402
05520
13636
07140
08309
01356
01207
00134
00322
01126
00029
01465
06016
07082
00943
03639
09986
03543
01885
07107
05541
04080
00052
03558
09977
00858
02441
05782
01714
03473
01628
00116
09808
03300
07690
01129
03776
09808
13924
03394
04754
00616
05539
02342
03466
03559
00912
09791
00979
00075
08300
06179
04773
07040
02911
00133
03088
07165
01817
03749
09916
01256
03924
03638
03750
03415
03621
00645
13651
13655
01133
14268
02002
03762
02029
02029
02030
15539
14335
14233
02029
02029
02053
14347
02010
02010
02052
14223
14223
02029
14236
02035
14287
14233
14228
14228
03088
14221
14221
14221
14221
14221
14233
01505
14228
07003
07003
06867
06992
14234
14224
14224
14224
14224
14224
00433
14218
14218
14218
14218
14218
14218
00303
06076
14230
14227
14227
14227
00459
02055
11737
14228
07497
14393
07011
14219
14225
00941
14219
02053
02054
02052
02358
07474
07749
14205
14415
07165
07116
02442
02525
03293
14170
00018
02054
17322
06148
00020
03307
01046
14234
14267
14231
14234
14260
14225
14441
14225
14225
14225
14225
01524
06884
14226
14226
02055
00249
01978
14237
14237
14222
16238
15396
14228
14219
14232
14232
14233
14235
14230
14230
14230
14230
14261
01980
01980
01980
01980
01980
01980
01980
14219
14219
14219
14219
14161
14162
03457
01985
01985
01985
01985
01985
01985
01985
01985
01607
14974
00108
01826
00130
04093
00799
01607
03566
03566
05799
09017
01239
14475
14742
00344
00344
07165
00090
01758
00632
00248
06919
14652
14652
08191
14977
00355
10024
10023
02055
02055
02054
02052
02052
02030
02030
02030
02030
02030
02028
02028
08194
07497
11735
03457
03457
15011
15727
03088
03088
00146
00130
07481
03321
06177
11939
15229
15726
15012
03741
07394
07459
03892
06147
04065
00128
00131
00799
07165
07165
07168
08985
00128
01003
10022
07165
00480
14682
15034
12543
15725
15257
15256
09483
16081
06858
15727
15724
05603
15738
15554
15633
15553
15551
10831
15553
15735
15746
02050
15552
15553
02428
10747
07116
00114
15736
15737
04765
15725
15357
01692
01692
01692
16011
12543
11741
15461
08685
00459
01082
15268
15228
15866
01692
15977
15977
12542
12541
10716
00254
15984
15977
02049
02051
00145
07184
02030
07402
07303
07302
09136
01754
01266
00640
01991
07400
07152
09190
07112
03535
01707
07010
00285
01438
07088
02002
03406
07084
06214
06871
03752
03585
02106
01356
06016
00014
03762
02014
18093
02013
02015
02016
02014
01975
03088
08159
04487
02029
02029
04335
11892
00626
06204
05564
05563
05562
05561
05560
01262
02040
00574
09701
00305
07223
03453
03837
07799
07788
07789
03088
07165
02014
07277
06016
01751
09972
02029
07018
03606
02044
00865
02647
10680
05782
03381
02471
03406
00548
06938
01737
01908
06916
09794
07347
00626
03449
00375
02003
02004
02205
01775
11073
03885
00998
06966
01915
07165
03543
00826
02230
11103
03776
09816
09817
09815
07262
01652
00014
02228
00074
00457
02051
02456
03299
00851
06145
03406
07679
07690
09984
02189
06911
04338
07152
05548
02002
02000
01915
11073
01752
08223
04754
09958
00381
01740
00299
06204
01745
01745
00074
01912
08679
03781
18138
02014
02014
01652
16135
16092
16091
11073
01480
06916
00059
00064
00059
08738
18297
16091
16090
16088
16088
16088
16088
16088
16088
16147
16090
03301
00123
00126
06169
07165
02454
02453
02456
02456
04337
03430
02013
02016
02015
02015
00127
00124
02014
07233
08303
00606
05306
08195
17828
18968
02029
16087
07507
01640
00481
00681
08276
07507
02014
02035
02033
02034
03707
12262
03544
01338
03770
07001
03424
04760
02004
02003
10804
06975
01626
00077
00390
02028
02030
03320
03451
03464
03381
15554
03566
01915
07010
12256
03607
09962
01908
03320
03406
07267
16053
16087
02029
02029
10025
16074
16074
11734
02617
03088
07165
02014
16345
16243
16242
01800
07038
00209
01426
16244
16246
20542
00355
15555
16245
16249
18297
16088
16088
16088
16088
16322
14225
16291
11734
11735
11735
11737
16264
03321
11959
11960
11961
15553
15555
15554
15553
07122
19591
12368
11962
11963
18981
15554
07090
08721
15977
17716
02226
11917
02050
16872
02049
07240
04064
00661
17736
06147
11939
02071
03576
03644
00600
02437
11737
01714
17226
02030
02030
17315
16841
17316
17325
17323
17321
02030
00681
17317
02028
01990
16922
19609
02484
19611
02028
17060
17061
17324
17247
17103
17218
09472
17713
17228
10112
07644
02029
01990
01990
07576
01992
01992
01992
15035
17686
17686
01533
18139
17723
17758
19746
07263
07263
00138
17735
00135
17737
17736
15553
02614
02031
02032
02031
02032
00146
18028
18030
17989
11737
19302
18138
09017
00004
18093
18029
21430
18093
04343
18118
18277
15553
05548
11735
07733
03657
16088
07263
07263
07394
03579
03566
11073
00297
11903
06995
07165
07165
07165
07165
18296
18295
18294
18298
18299
18300
18306
18307
03761
22349
18138
09471
15866
18301
18303
00138
01139
09472
16234
11904
18480
16234
18540
18691
07088
06910
01626
03769
03769
21645
18800
18893
20862
18893
03502
01971
09892
18954
18954
18850
03496
18930
03646
07665
03976
19055
03526
07483
07483
07483
21405
07497
07497
07497
07481
18979
09472
18997
02663
03458
22444
22468
19068
03446
03668
21498
19168
19221
01066
19290
01992
04771
19293
19294
19295
00059
03574
01795
19337
19337
19416
01785
19353
19291
19292
19577
19577
21699
19610
19609
11209
06884
19610
21449
00799
19591
19713
19707
07165
00992
07315
00275
06132
00799
19784
06131
00995
07119
07147
15777
17722
19803
09796
22443
20971
20276
06147
20455
20543
09788
06147
20534
20541
20972
01214
11529
20881
01023
21001
21062
13877
20938
21135
21137
21021
20973
20974
20975
00840
20976
20977
20978
21053
07689
13877
21024
21029
21023
21060
08968
21136
13877
21062
21133
21134
21218
07336
06903
06907
06908
06906
06905
07451
14744
07313
02315
07451
06217
03676
00287
00560
01520
22468
20938
05375
21196
05710
03862
20938
21416
21417
02483
21405
21405
21405
21420
22044
21405
22044
01451
07334
21711
22081
21757
21825
21826
21833
21834
21830
21826
21883
21832
21990
22027
05802
00043
01816
22132
22067
22294
22082
22083
03595
07183
00304
00304
00302
08994
08994
22292
22250
22296
22345
22303
02257
02257
11391
11206
13566
22491
22491
22468